Time,Temperature
0,22.3
1,22.5
2,22.6
3,22.8
4,23.1
5,23.5
6,23.9
7,24.5
8,25.1
9,25.8
10,26.6
11,27.5
12,28.5
13,29.5
14,30.6
15,31.7
16,32.9
17,34.1
18,35.4
19,36.7
20,38.1
21,39.5
22,41.0
23,42.5
24,44.1
25,45.7
26,47.4
27,49.2
28,51.0
29,52.8
30,54.7
31,56.7
32,58.7
33,60.8
34,63.0
35,65.2
36,67.5
37,69.9
38,72.3
39,74.8
40,77.3
41,80.0
42,82.7
43,85.5
44,88.3
45,91.2
46,94.2
47,97.2
48,100.3
49,103.5
60,130.0
70,140.0
80,150.0
